      Time [a.u.]          Fe [eV]         Unn [eV]           K [eV]           F [eV]           T [eV]          Ts [eV]         Een [eV]         Eee [eV]         Exc [eV]
         0.000000     -2589.074804     -1379.226546        15.000000     -3953.301350        10.000000      2098.920881     -5591.632945      1252.011742      -348.374482
        40.000000     -2593.317623     -1374.896427        14.911034     -3953.303015         9.940689      2099.201248     -5600.003051      1255.903958      -348.419778
        80.000000     -2605.843498     -1362.109150        14.646623     -3953.306025         9.764415      2099.936431     -5624.524665      1267.290401      -348.545665
       120.000000     -2626.049394     -1341.469067        14.212309     -3953.306152         9.474873      2101.161587     -5664.105828      1285.648967      -348.754119
       160.000000     -2652.963242     -1313.950426        13.607544     -3953.306124         9.071696      2102.880820     -5716.888749      1310.087694      -349.043007
       200.000000     -2685.220086     -1280.923745        12.835704     -3953.308127         8.557136      2105.065997     -5780.226018      1339.346202      -349.406267
       240.000000     -2721.003064     -1244.221770        11.918470     -3953.306363         7.945647      2107.641005     -5850.562615      1371.749149      -349.830603
       280.000000     -2757.936175     -1206.260934        10.896630     -3953.300479         7.264420      2110.528204     -5923.299418      1405.130512      -350.295473
       320.000000     -2793.017418     -1170.128122         9.854413     -3953.291127         6.569609      2113.462942     -5992.486474      1436.765577      -350.759463
       360.000000     -2822.851124     -1139.356322         8.928537     -3953.278909         5.952358      2116.047863     -6051.341655      1463.607059      -351.164391
       400.000000     -2844.360579     -1117.180702         8.270887     -3953.270393         5.513925      2117.884040     -6093.735341      1482.943291      -351.452569
       440.000000     -2855.864790     -1105.383422         7.975801     -3953.272411         5.317201      2118.748795     -6116.344720      1493.322255      -351.591119
       480.000000     -2857.676915     -1103.636161         8.030942     -3953.282134         5.353961      2118.594229     -6119.670895      1494.979507      -351.579755
       520.000000     -2851.681940     -1109.946880         8.336853     -3953.291967         5.557902      2117.727877     -6107.546465      1489.595114      -351.458466
       560.000000     -2840.286114     -1121.786771         8.775204     -3953.297681         5.850136      2116.499380     -6084.824503      1479.313789      -351.274781
       600.000000     -2825.562579     -1136.996792         9.261761     -3953.297610         6.174507      2115.136697     -6055.627337      1465.991893      -351.063832
       640.000000     -2808.957180     -1154.087250         9.747664     -3953.296766         6.498442      2113.767158     -6022.818503      1450.940669      -350.846504
       680.000000     -2791.361769     -1172.149824        10.214023     -3953.297570         6.809349      2112.449631     -5988.161962      1434.983624      -350.633062
       720.000000     -2773.295506     -1190.661888        10.659552     -3953.297842         7.106368      2111.199902     -5952.664202      1418.595967      -350.427173
       760.000000     -2755.092838     -1209.290056        11.085652     -3953.297242         7.390435      2110.005849     -5916.949976      1402.079883      -350.228594
       800.000000     -2737.051783     -1227.737373        11.492130     -3953.297025         7.661420      2108.867059     -5881.587632      1385.706537      -350.037747
       840.000000     -2719.556934     -1245.617142        11.875430     -3953.298645         7.916954      2107.784575     -5847.309178      1369.823578      -349.855909
       880.000000     -2703.132675     -1262.398259        12.230769     -3953.300165         8.153846      2106.767409     -5815.110178      1354.895749      -349.685655
       920.000000     -2688.486579     -1277.360543        12.544626     -3953.302496         8.363084      2105.867864     -5786.395757      1341.575893      -349.534579
       960.000000     -2676.510306     -1289.592821        12.796936     -3953.306191         8.531291      2105.155205     -5762.926310      1330.673801      -349.413002
      1000.000000     -2668.246038     -1298.025415        12.961050     -3953.310403         8.640700      2104.674772     -5746.709348      1323.120196      -349.331658
      1040.000000     -2664.851086     -1301.462895        12.998512     -3953.315469         8.665675      2104.537988     -5740.045732      1319.965093      -349.308435
      1080.000000     -2667.483479     -1298.696168        12.857963     -3953.321684         8.571975      2104.901996     -5745.273474      1322.253941      -349.365943
      1120.000000     -2677.085414     -1288.718110        12.473689     -3953.329835         8.315793      2105.942433     -5764.316030      1330.816745      -349.528562
      1160.000000     -2693.915572     -1271.201853        11.780521     -3953.336904         7.853680      2107.822575     -5797.761011      1345.838274      -349.815411
      1200.000000     -2716.682144     -1247.413262        10.761666     -3953.333740         7.174444      2110.592863     -5843.152101      1366.099440      -350.222346
      1240.000000     -2741.399327     -1221.465908         9.555649     -3953.309586         6.370433      2113.857947     -5892.564976      1387.991977      -350.684276
      1280.000000     -2761.005439     -1200.828964         8.564038     -3953.270365         5.709359      2116.551904     -5931.826588      1405.324074      -351.054828
      1320.000000     -2768.225765     -1193.317584         8.284241     -3953.259107         5.522828      2117.322394     -5946.193760      1411.809882      -351.164281
      1360.000000     -2761.230918     -1200.904137         8.842922     -3953.292132         5.895282      2115.832359     -5931.970157      1405.878573      -350.971693
      1400.000000     -2745.396168     -1217.774745         9.841106     -3953.329807         6.560737      2113.171567     -5900.088201      1392.131920      -350.611454
      1440.000000     -2728.495844     -1235.627096        10.776156     -3953.346785         7.184104      2110.618449     -5866.124894      1377.266040      -350.255440
      1480.000000     -2715.952855     -1248.786120        11.393640     -3953.345335         7.595760      2108.943199     -5841.023456      1366.138867      -350.011465
      1520.000000     -2709.970547     -1255.026935        11.659080     -3953.338402         7.772720      2108.223048     -5829.075912      1360.785586      -349.903269
      1560.000000     -2710.704674     -1254.255566        11.626471     -3953.333769         7.750981      2108.338056     -5830.546256      1361.422808      -349.919282
      1600.000000     -2717.567814     -1247.108740        11.343619     -3953.332935         7.562413      2109.134373     -5844.201730      1367.540548      -350.041005
      1640.000000     -2730.012371     -1234.125313        10.801772     -3953.335912         7.201182      2110.625595     -5868.993573      1378.621964      -350.266357
      1680.000000     -2747.389121     -1215.896938         9.946586     -3953.339473         6.631057      2112.921418     -5903.706138      1393.996970      -350.601371
      1720.000000     -2767.670901     -1194.443570         8.785898     -3953.328573         5.857265      2115.996213     -5944.408335      1411.769472      -351.028251
      1760.000000     -2785.819366     -1175.042718         7.572282     -3953.289803         5.048188      2119.185219     -5981.023059      1427.467240      -351.448766
      1800.000000     -2793.950198     -1166.177832         6.877156     -3953.250875         4.584770      2120.995143     -5997.579709      1434.308890      -351.674522
      1840.000000     -2786.172244     -1174.290098         7.197814     -3953.264528         4.798542      2120.117131     -5982.077547      1427.337799      -351.549627
      1880.000000     -2764.352862     -1197.359893         8.403762     -3953.308993         5.602508      2116.900448     -5938.285665      1408.148892      -351.116538
      1920.000000     -2736.514170     -1226.700673         9.884416     -3953.330427         6.589611      2112.987582     -5882.526172      1383.597766      -350.573346
      1960.000000     -2710.390619     -1254.079852        11.139756     -3953.330715         7.426504      2109.616332     -5830.327165      1360.407969      -350.087755
      2000.000000     -2690.232586     -1275.096897        12.003153     -3953.326330         8.002102      2107.257960     -5790.170136      1342.414637      -349.735047
      2040.000000     -2677.276457     -1288.550433        12.508412     -3953.318478         8.338942      2105.867885     -5764.425812      1330.802441      -349.520971
      2080.000000     -2671.018925     -1295.028550        12.739828     -3953.307647         8.493218      2105.251011     -5752.038941      1325.192403      -349.423397
      2120.000000     -2670.105714     -1295.969969        12.772183     -3953.303499         8.514789      2105.171931     -5750.259962      1324.392924      -349.410607
      2160.000000     -2672.812582     -1293.173923        12.686504     -3953.300000         8.457669      2105.427826     -5755.650695      1326.861353      -349.451065
      2200.000000     -2677.344631     -1288.501006        12.551439     -3953.294198         8.367626      2105.823784     -5764.632806      1330.979465      -349.515074
      2240.000000     -2682.068264     -1283.640872        12.418201     -3953.290935         8.278801      2106.215797     -5773.984883      1335.278816      -349.577995
      2280.000000     -2685.759933     -1279.858839        12.329650     -3953.289121         8.219767      2106.474468     -5781.268436      1338.654562      -349.620526
      2320.000000     -2687.797985     -1277.797348        12.306036     -3953.289298         8.204024      2106.553608     -5785.266294      1340.548709      -349.634009
      2360.000000     -2688.258327     -1277.375395        12.346463     -3953.287259         8.230975      2106.450495     -5786.112320      1341.023279      -349.619781
      2400.000000     -2687.802387     -1277.903680        12.414913     -3953.291154         8.276609      2106.243159     -5785.123834      1340.668061      -349.589773
      2440.000000     -2687.416351     -1278.356380        12.473951     -3953.298780         8.315967      2106.048007     -5784.272638      1340.369880      -349.561600
      2480.000000     -2688.051906     -1277.745545        12.499465     -3953.297987         8.332977      2105.980133     -5785.468981      1340.989184      -349.552242
      2520.000000     -2690.367528     -1275.389444        12.464033     -3953.292939         8.309356      2106.103334     -5790.014227      1343.115360      -349.571994
      2560.000000     -2694.664804     -1270.976068        12.349401     -3953.291471         8.232934      2106.423828     -5798.476629      1347.012469      -349.624471
      2600.000000     -2701.008630     -1264.433859        12.149184     -3953.293305         8.099456      2106.996971     -5811.041026      1352.749787      -349.714362
      2640.000000     -2709.410208     -1255.736430        11.852187     -3953.294451         7.901458      2107.818099     -5827.696989      1360.312616      -349.843934
      2680.000000     -2719.835015     -1244.892676        11.431494     -3953.296196         7.620996      2108.975995     -5848.445634      1369.655581      -350.020957
      2720.000000     -2731.910321     -1232.257805        10.872813     -3953.295313         7.248542      2110.517110     -5872.597733      1380.417578      -350.247276
      2760.000000     -2744.345283     -1219.159228        10.218053     -3953.286457         6.812036      2112.276864     -5897.529584      1391.407001      -350.499564
      2800.000000     -2754.528088     -1208.350299         9.608116     -3953.270271         6.405411      2113.929719     -5918.072248      1400.341266      -350.726825
      2840.000000     -2759.050512     -1203.473780         9.267675     -3953.256617         6.178450      2114.839258     -5927.291618      1404.249493      -350.847644
      2880.000000     -2755.501538     -1207.129776         9.373940     -3953.257374         6.249293      2114.547095     -5920.314158      1401.068222      -350.802697
      2920.000000     -2744.307135     -1218.870280         9.906787     -3953.270627         6.604525      2113.128331     -5898.014159      1391.178935      -350.600242
      2960.000000     -2728.697937     -1235.246348        10.660026     -3953.284260         7.106684      2111.083140     -5866.839987      1377.367055      -350.308145
      3000.000000     -2712.918524     -1251.769625        11.397205     -3953.290945         7.598137      2109.066142     -5835.331983      1363.361294      -350.013978
      3040.000000     -2700.590337     -1264.664168        11.959552     -3953.294953         7.973035      2107.491606     -5810.693550      1352.392749      -349.781142
      3080.000000     -2694.225019     -1271.348399        12.273328     -3953.300090         8.182219      2106.626715     -5797.977247      1346.776015      -349.650502
      3120.000000     -2695.370465     -1270.241485        12.307578     -3953.304372         8.205052      2106.538058     -5800.174973      1347.906061      -349.639612
      3160.000000     -2704.800074     -1260.538618        12.032183     -3953.306510         8.021455      2107.298957     -5818.820115      1356.483414      -349.762330
      3200.000000     -2722.375129     -1242.341622        11.410424     -3953.306328         7.606949      2109.041797     -5853.755554      1372.369294      -350.030665
      3240.000000     -2746.441613     -1217.294789        10.435457     -3953.300945         6.956971      2111.734392     -5901.724815      1393.980494      -350.431683
      3280.000000     -2772.827479     -1189.681435         9.228100     -3953.280814         6.152066      2115.021152     -5954.451308      1417.507129      -350.904452
      3320.000000     -2794.379486     -1167.010598         8.148991     -3953.241092         5.432661      2117.980803     -5997.667691      1436.622396      -351.314994
      3360.000000     -2803.112099     -1157.802416         7.696737     -3953.217778         5.131158      2119.203009     -6015.163303      1444.333112      -351.484918
      3400.000000     -2795.368145     -1165.986686         8.115877     -3953.238955         5.410584      2118.084495     -5999.639687      1437.522233      -351.335185
      3440.000000     -2774.898864     -1187.515005         9.141185     -3953.272683         6.094123      2115.307532     -5958.642700      1419.388124      -350.951819
      3480.000000     -2749.477580     -1214.094890        10.285920     -3953.286550         6.857280      2112.198360     -5907.873760      1396.703122      -350.505301
      3520.000000     -2725.818822     -1238.690356        11.219609     -3953.289569         7.479740      2109.628624     -5860.777009      1375.450521      -350.120957
      3560.000000     -2707.847543     -1257.282914        11.836368     -3953.294089         7.890912      2107.895713     -5825.113934      1359.222908      -349.852230
      3600.000000     -2697.087239     -1268.364158        12.156879     -3953.294518         8.104586      2106.981687     -5803.827743      1349.466132      -349.707314
      3640.000000     -2693.512579     -1272.002258        12.225447     -3953.289390         8.150298      2106.806559     -5796.844054      1346.200517      -349.675601
      3680.000000     -2696.018137     -1269.353061        12.083288     -3953.287910         8.055525      2107.210436     -5801.914356      1348.420352      -349.734569
      3720.000000     -2702.678243     -1262.407117        11.794398     -3953.290961         7.862932      2108.015930     -5815.220690      1354.381585      -349.855067
      3760.000000     -2711.056809     -1253.688211        11.457778     -3953.287242         7.638519      2108.950380     -5831.872568      1361.861490      -349.996112
      3800.000000     -2718.699707     -1245.754348        11.176627     -3953.277428         7.451085      2109.720586     -5846.966814      1368.661334      -350.114813
      3840.000000     -2723.937586     -1240.359386        11.023466     -3953.273506         7.348977      2110.162801     -5857.244677      1373.327295      -350.183004
      3880.000000     -2726.474167     -1237.823512        11.018384     -3953.279295         7.345590      2110.158526     -5862.045471      1375.602280      -350.189502
      3920.000000     -2727.533706     -1236.868964        11.115771     -3953.286899         7.410514      2109.880105     -5863.860499      1376.603716      -350.157028
      3960.000000     -2729.207740     -1235.306417        11.223573     -3953.290584         7.482382      2109.586827     -5866.874005      1378.202869      -350.123431
      4000.000000     -2733.529413     -1231.010203        11.248450     -3953.291166         7.498966      2109.527230     -5875.151009      1382.220291      -350.125924
      4040.000000     -2741.748103     -1222.676369        11.134247     -3953.290225         7.422831      2109.867516     -5891.210861      1389.783815      -350.188573
      4080.000000     -2754.019646     -1210.139632        10.872734     -3953.286545         7.248489      2110.619421     -5915.340249      1401.016156      -350.314974
      4120.000000     -2769.489568     -1194.281476        10.487780     -3953.283264         6.991853      2111.742098     -5945.887130      1415.151180      -350.495716
      4160.000000     -2786.524325     -1176.787610        10.032721     -3953.279214         6.688481      2113.041213     -5979.542525      1430.681889      -350.704902
      4200.000000     -2803.144826     -1159.699875         9.571301     -3953.273400         6.380867      2114.373894     -6012.416283      1445.813898      -350.916335
      4240.000000     -2817.432957     -1144.997767         9.161469     -3953.269255         6.107646      2115.528237     -6040.648302      1458.787125      -351.100017
      4280.000000     -2827.958738     -1134.159848         8.852878     -3953.265708         5.901919      2116.407666     -6061.448456      1468.319233      -351.237181
      4320.000000     -2834.001413     -1127.936870         8.673277     -3953.265005         5.782185      2116.895817     -6073.333473      1473.749786      -351.313542
      4360.000000     -2835.661328     -1126.234758         8.629011     -3953.267075         5.752674      2116.983591     -6076.507050      1475.190555      -351.328424
      4400.000000     -2833.698230     -1128.277125         8.705573     -3953.269782         5.803715      2116.749435     -6072.512439      1473.357156      -351.292382
      4440.000000     -2829.334190     -1132.804182         8.865990     -3953.272382         5.910660      2116.284641     -6063.760917      1469.363565      -351.221478
      4480.000000     -2823.911795     -1138.425900         9.064132     -3953.273563         6.042755      2115.746557     -6052.961304      1464.440169      -351.137218
      4520.000000     -2818.585340     -1143.945095         9.255970     -3953.274465         6.170647      2115.206850     -6042.348315      1459.610575      -351.054450
      4560.000000     -2814.163481     -1148.523942         9.411378     -3953.276045         6.274252      2114.747904     -6033.529968      1455.603942      -350.985360
